Score	Lower bound	Upper bound	Likelihood	TPR	FPR	PPV	FDR	No. positives	No. negatives
0.40259	0.31313	0.52337	2.510	1.000	0.398	0.039	0.961	6	147
0.40200	0.31236	0.52337	2.493	1.000	0.401	0.039	0.961	6	148
0.39916	0.31157	0.52337	2.412	1.000	0.415	0.038	0.962	6	153
0.39916	0.31157	0.52337	2.412	1.000	0.415	0.038	0.962	6	153
0.39595	0.31157	0.50391	2.050	0.833	0.407	0.032	0.968	5	150
0.38457	0.29920	0.49523	1.864	0.833	0.447	0.029	0.971	5	165
0.37581	0.29920	0.44558	1.230	0.500	0.407	0.020	0.980	3	150
0.37481	0.29881	0.44558	1.214	0.500	0.412	0.019	0.981	3	152
0.37481	0.29881	0.44558	1.214	0.500	0.412	0.019	0.981	3	152
0.37432	0.29784	0.44558	1.206	0.500	0.415	0.019	0.981	3	153
0.37381	0.29369	0.44558	1.198	0.500	0.417	0.019	0.981	3	154
0.37330	0.29316	0.44558	1.190	0.500	0.420	0.019	0.981	3	155
0.37180	0.29304	0.44558	1.168	0.500	0.428	0.019	0.981	3	158
0.37180	0.29304	0.44558	1.168	0.500	0.428	0.019	0.981	3	158
0.36794	0.29304	0.44424	0.815	0.333	0.409	0.013	0.987	2	151
0.35940	0.27189	0.44424	0.737	0.333	0.453	0.012	0.988	2	167
0.35117	0.27189	0.43175	0.405	0.167	0.412	0.007	0.993	1	152
0.35012	0.27078	0.43151	0.405	0.167	0.412	0.007	0.993	1	152
0.34803	0.26933	0.43128	0.399	0.167	0.417	0.006	0.994	1	154
0.34540	0.26454	0.43117	0.397	0.167	0.420	0.006	0.994	1	155
0.34011	0.25928	0.42463	0.392	0.167	0.425	0.006	0.994	1	157
0.33093	0.23891	0.42289	0.362	0.167	0.461	0.006	0.994	1	170
0.32119	0.23891	0.39822	0.000	0.000	0.415	0.000	1.000	0	153
0.32065	0.23818	0.39822	0.000	0.000	0.417	0.000	1.000	0	154
0.32011	0.23699	0.39822	0.000	0.000	0.420	0.000	1.000	0	155
0.31956	0.23435	0.39822	0.000	0.000	0.423	0.000	1.000	0	156
0.31900	0.23203	0.39822	0.000	0.000	0.425	0.000	1.000	0	157
0.31789	0.23065	0.39822	0.000	0.000	0.431	0.000	1.000	0	159
0.31474	0.23065	0.39739	0.000	0.000	0.415	0.000	1.000	0	153
0.31364	0.22983	0.39726	0.000	0.000	0.415	0.000	1.000	0	153
0.31305	0.22234	0.39726	0.000	0.000	0.417	0.000	1.000	0	154
0.31077	0.22163	0.39324	0.000	0.000	0.417	0.000	1.000	0	154
0.31023	0.22163	0.38907	0.000	0.000	0.415	0.000	1.000	0	153
0.30913	0.22049	0.38701	0.000	0.000	0.415	0.000	1.000	0	153
0.30747	0.22007	0.38629	0.000	0.000	0.417	0.000	1.000	0	154
0.30695	0.22007	0.38590	0.000	0.000	0.415	0.000	1.000	0	153
0.30586	0.21857	0.38535	0.000	0.000	0.415	0.000	1.000	0	153
0.30528	0.21675	0.38535	0.000	0.000	0.417	0.000	1.000	0	154
0.30469	0.21433	0.38535	0.000	0.000	0.420	0.000	1.000	0	155
0.30407	0.20798	0.38535	0.000	0.000	0.423	0.000	1.000	0	156
0.30132	0.20757	0.38452	0.000	0.000	0.415	0.000	1.000	0	153
0.30010	0.20700	0.38452	0.000	0.000	0.420	0.000	1.000	0	155
0.29900	0.20700	0.38243	0.000	0.000	0.415	0.000	1.000	0	153
0.29840	0.20648	0.38243	0.000	0.000	0.417	0.000	1.000	0	154
0.29670	0.20614	0.38150	0.000	0.000	0.415	0.000	1.000	0	153
0.29554	0.20521	0.38120	0.000	0.000	0.415	0.000	1.000	0	153
0.29496	0.20490	0.38120	0.000	0.000	0.417	0.000	1.000	0	154
0.29323	0.20414	0.38010	0.000	0.000	0.415	0.000	1.000	0	153
0.29265	0.20349	0.38010	0.000	0.000	0.417	0.000	1.000	0	154
0.29092	0.20233	0.37971	0.000	0.000	0.415	0.000	1.000	0	153
0.29032	0.19869	0.37971	0.000	0.000	0.417	0.000	1.000	0	154
0.28853	0.19598	0.37894	0.000	0.000	0.415	0.000	1.000	0	153
0.28734	0.19558	0.37855	0.000	0.000	0.415	0.000	1.000	0	153
0.28613	0.19330	0.37787	0.000	0.000	0.415	0.000	1.000	0	153
0.28492	0.19280	0.37621	0.000	0.000	0.415	0.000	1.000	0	153
0.28312	0.19251	0.37508	0.000	0.000	0.417	0.000	1.000	0	154
0.28252	0.19251	0.37468	0.000	0.000	0.415	0.000	1.000	0	153
0.28075	0.19223	0.36800	0.000	0.000	0.417	0.000	1.000	0	154
0.28018	0.19223	0.36733	0.000	0.000	0.415	0.000	1.000	0	153
0.27840	0.18643	0.36695	0.000	0.000	0.417	0.000	1.000	0	154
0.27840	0.18643	0.36695	0.000	0.000	0.417	0.000	1.000	0	154
0.27663	0.18579	0.36349	0.000	0.000	0.415	0.000	1.000	0	153
0.27604	0.18523	0.36349	0.000	0.000	0.417	0.000	1.000	0	154
0.27430	0.18493	0.36113	0.000	0.000	0.415	0.000	1.000	0	153
0.27257	0.18466	0.36074	0.000	0.000	0.417	0.000	1.000	0	154
0.27200	0.18466	0.35998	0.000	0.000	0.415	0.000	1.000	0	153
0.27084	0.18319	0.35726	0.000	0.000	0.415	0.000	1.000	0	153
0.26914	0.18308	0.35687	0.000	0.000	0.417	0.000	1.000	0	154
0.26857	0.18308	0.35532	0.000	0.000	0.415	0.000	1.000	0	153
0.26746	0.18288	0.35532	0.000	0.000	0.420	0.000	1.000	0	155
0.26631	0.18288	0.35275	0.000	0.000	0.415	0.000	1.000	0	153
0.26520	0.18262	0.35184	0.000	0.000	0.415	0.000	1.000	0	153
0.26409	0.18221	0.35022	0.000	0.000	0.415	0.000	1.000	0	153
0.26299	0.18139	0.34991	0.000	0.000	0.415	0.000	1.000	0	153
0.26188	0.18002	0.34958	0.000	0.000	0.415	0.000	1.000	0	153
0.25970	0.17836	0.34874	0.000	0.000	0.420	0.000	1.000	0	155
0.25912	0.17836	0.34855	0.000	0.000	0.417	0.000	1.000	0	154
0.25853	0.17836	0.34302	0.000	0.000	0.415	0.000	1.000	0	153
0.25745	0.17756	0.33287	0.000	0.000	0.415	0.000	1.000	0	153
0.25644	0.17710	0.33221	0.000	0.000	0.415	0.000	1.000	0	153
0.25542	0.17622	0.33171	0.000	0.000	0.415	0.000	1.000	0	153
0.25440	0.17584	0.33044	0.000	0.000	0.415	0.000	1.000	0	153
0.25388	0.17440	0.33044	0.000	0.000	0.417	0.000	1.000	0	154
0.25335	0.17210	0.33044	0.000	0.000	0.420	0.000	1.000	0	155
0.25130	0.17157	0.33016	0.000	0.000	0.415	0.000	1.000	0	153
0.25026	0.17115	0.32900	0.000	0.000	0.415	0.000	1.000	0	153
0.24922	0.16956	0.32763	0.000	0.000	0.415	0.000	1.000	0	153
0.24819	0.16899	0.32573	0.000	0.000	0.415	0.000	1.000	0	153
0.24715	0.16797	0.32323	0.000	0.000	0.415	0.000	1.000	0	153
0.24563	0.16784	0.32165	0.000	0.000	0.417	0.000	1.000	0	154
0.24513	0.16784	0.32025	0.000	0.000	0.415	0.000	1.000	0	153
0.24414	0.16756	0.31779	0.000	0.000	0.415	0.000	1.000	0	153
0.24265	0.16676	0.31739	0.000	0.000	0.417	0.000	1.000	0	154
0.24216	0.16676	0.31700	0.000	0.000	0.415	0.000	1.000	0	153
0.24021	0.16641	0.31623	0.000	0.000	0.420	0.000	1.000	0	155
0.23972	0.16641	0.31514	0.000	0.000	0.417	0.000	1.000	0	154
0.23923	0.16641	0.31478	0.000	0.000	0.415	0.000	1.000	0	153
0.23826	0.16606	0.31313	0.000	0.000	0.415	0.000	1.000	0	153
0.23732	0.16562	0.31313	0.000	0.000	0.420	0.000	1.000	0	155
0.23633	0.16562	0.31236	0.000	0.000	0.415	0.000	1.000	0	153
0.23491	0.16504	0.31157	0.000	0.000	0.417	0.000	1.000	0	154
0.23491	0.16504	0.31157	0.000	0.000	0.417	0.000	1.000	0	154
0.23400	0.16420	0.31157	0.000	0.000	0.423	0.000	1.000	0	156
0.23400	0.16420	0.31157	0.000	0.000	0.423	0.000	1.000	0	156
0.23355	0.16253	0.31157	0.000	0.000	0.425	0.000	1.000	0	157
0.22965	0.16226	0.30965	0.000	0.000	0.420	0.000	1.000	0	155
0.22965	0.16226	0.30965	0.000	0.000	0.420	0.000	1.000	0	155
0.22965	0.16226	0.30965	0.000	0.000	0.420	0.000	1.000	0	155
0.22835	0.16092	0.30965	0.000	0.000	0.428	0.000	1.000	0	158
0.22624	0.16092	0.30907	0.000	0.000	0.417	0.000	1.000	0	154
0.22569	0.16092	0.30867	0.000	0.000	0.415	0.000	1.000	0	153
0.22527	0.16073	0.30867	0.000	0.000	0.417	0.000	1.000	0	154
0.22376	0.16060	0.30849	0.000	0.000	0.415	0.000	1.000	0	153
0.22334	0.15929	0.30849	0.000	0.000	0.417	0.000	1.000	0	154
0.22140	0.15872	0.30655	0.000	0.000	0.417	0.000	1.000	0	154
0.22140	0.15872	0.30655	0.000	0.000	0.417	0.000	1.000	0	154
0.21987	0.15807	0.30511	0.000	0.000	0.415	0.000	1.000	0	153
0.21946	0.15694	0.30511	0.000	0.000	0.417	0.000	1.000	0	154
0.21793	0.15661	0.30289	0.000	0.000	0.415	0.000	1.000	0	153
0.21713	0.15612	0.30289	0.000	0.000	0.420	0.000	1.000	0	155
0.21601	0.15612	0.30152	0.000	0.000	0.415	0.000	1.000	0	153
0.21506	0.15579	0.29920	0.000	0.000	0.415	0.000	1.000	0	153
0.21467	0.15527	0.29920	0.000	0.000	0.417	0.000	1.000	0	154
0.21318	0.15515	0.29881	0.000	0.000	0.415	0.000	1.000	0	153
0.21243	0.15491	0.29881	0.000	0.000	0.420	0.000	1.000	0	155
0.21130	0.15491	0.29784	0.000	0.000	0.415	0.000	1.000	0	153
0.21036	0.15399	0.29369	0.000	0.000	0.415	0.000	1.000	0	153
0.20908	0.15340	0.29316	0.000	0.000	0.417	0.000	1.000	0	154
0.20853	0.15340	0.29305	0.000	0.000	0.415	0.000	1.000	0	153
0.20816	0.15207	0.29305	0.000	0.000	0.417	0.000	1.000	0	154
0.20708	0.15185	0.29305	0.000	0.000	0.425	0.000	1.000	0	157
0.20541	0.15185	0.28475	0.000	0.000	0.417	0.000	1.000	0	154
0.20489	0.15185	0.28204	0.000	0.000	0.415	0.000	1.000	0	153
0.20419	0.15072	0.28204	0.000	0.000	0.420	0.000	1.000	0	155
0.20317	0.15072	0.27875	0.000	0.000	0.415	0.000	1.000	0	153
0.20233	0.15009	0.27819	0.000	0.000	0.415	0.000	1.000	0	153
0.20199	0.14910	0.27819	0.000	0.000	0.417	0.000	1.000	0	154
0.20162	0.14576	0.27819	0.000	0.000	0.420	0.000	1.000	0	155
0.20091	0.14566	0.27819	0.000	0.000	0.425	0.000	1.000	0	157
0.19889	0.14566	0.27701	0.000	0.000	0.415	0.000	1.000	0	153
0.19769	0.14533	0.27678	0.000	0.000	0.417	0.000	1.000	0	154
0.19769	0.14533	0.27678	0.000	0.000	0.417	0.000	1.000	0	154
0.19735	0.14517	0.27678	0.000	0.000	0.420	0.000	1.000	0	155
0.19545	0.14441	0.27595	0.000	0.000	0.415	0.000	1.000	0	153
0.19458	0.14405	0.27511	0.000	0.000	0.415	0.000	1.000	0	153
0.19373	0.14385	0.27189	0.000	0.000	0.415	0.000	1.000	0	153
0.19339	0.14264	0.27189	0.000	0.000	0.417	0.000	1.000	0	154
0.19203	0.14142	0.27078	0.000	0.000	0.415	0.000	1.000	0	153
0.19083	0.13929	0.26961	0.000	0.000	0.417	0.000	1.000	0	154
0.19032	0.13929	0.26948	0.000	0.000	0.415	0.000	1.000	0	153
0.18946	0.13778	0.26933	0.000	0.000	0.415	0.000	1.000	0	153
0.18858	0.13561	0.26784	0.000	0.000	0.415	0.000	1.000	0	153
0.18771	0.13498	0.26746	0.000	0.000	0.415	0.000	1.000	0	153
0.18617	0.13472	0.26454	0.000	0.000	0.420	0.000	1.000	0	155
0.18567	0.13472	0.26403	0.000	0.000	0.417	0.000	1.000	0	154
0.18515	0.13472	0.26279	0.000	0.000	0.415	0.000	1.000	0	153
0.18430	0.13152	0.26164	0.000	0.000	0.415	0.000	1.000	0	153
0.18266	0.12536	0.25936	0.000	0.000	0.420	0.000	1.000	0	155
0.18266	0.12536	0.25936	0.000	0.000	0.420	0.000	1.000	0	155
0.18266	0.12536	0.25936	0.000	0.000	0.420	0.000	1.000	0	155
0.18076	0.12261	0.25835	0.000	0.000	0.415	0.000	1.000	0	153
0.17980	0.11206	0.25690	0.000	0.000	0.415	0.000	1.000	0	153
0.17885	0.11058	0.25594	0.000	0.000	0.415	0.000	1.000	0	153
0.17763	0.06926	0.25438	0.000	0.000	0.415	0.000	1.000	0	153
0.17566	0.06426	0.25364	0.000	0.000	0.417	0.000	1.000	0	154
0.17515	0.06426	0.25322	0.000	0.000	0.415	0.000	1.000	0	153
0.17125	0.00000	0.24419	0.000	0.000	0.420	0.000	1.000	0	155
0.17078	0.00000	0.24256	0.000	0.000	0.417	0.000	1.000	0	154
0.17031	0.00000	0.24246	0.000	0.000	0.415	0.000	1.000	0	153
