Score	Lower bound	Upper bound	Likelihood	TPR	FPR	PPV	FDR	No. positives	No. negatives
0.20648	0.00667	0.46425	2.510	1.000	0.398	0.039	0.961	6	147
0.20263	0.00600	0.46425	2.460	1.000	0.407	0.038	0.962	6	150
0.18197	0.00391	0.46413	2.264	1.000	0.442	0.036	0.964	6	163
0.14950	0.00376	0.46298	2.078	0.833	0.401	0.033	0.967	5	148
0.14670	0.00349	0.46298	2.036	0.833	0.409	0.032	0.968	5	151
0.13530	0.00253	0.46243	1.997	0.833	0.417	0.031	0.969	5	154
0.12249	0.00253	0.46056	1.230	0.500	0.407	0.020	0.980	3	150
0.11873	0.00235	0.46040	1.222	0.500	0.409	0.019	0.981	3	151
0.11506	0.00201	0.46040	1.183	0.500	0.423	0.019	0.981	3	156
0.10420	0.00192	0.45759	0.788	0.333	0.423	0.013	0.987	2	156
0.09380	0.00144	0.45576	0.774	0.333	0.431	0.012	0.988	2	159
0.07189	0.00130	0.43563	0.402	0.167	0.415	0.006	0.994	1	153
0.05854	0.00041	0.43139	0.340	0.167	0.491	0.005	0.995	1	181
0.01621	0.00038	0.12606	0.000	0.000	0.434	0.000	1.000	0	160
0.01482	0.00038	0.11677	0.000	0.000	0.428	0.000	1.000	0	158
0.01391	0.00034	0.09754	0.000	0.000	0.434	0.000	1.000	0	160
0.01323	0.00033	0.08404	0.000	0.000	0.436	0.000	1.000	0	161
0.01240	0.00032	0.07795	0.000	0.000	0.447	0.000	1.000	0	165
0.01193	0.00030	0.07708	0.000	0.000	0.447	0.000	1.000	0	165
0.01140	0.00028	0.07163	0.000	0.000	0.450	0.000	1.000	0	166
0.01108	0.00026	0.07163	0.000	0.000	0.463	0.000	1.000	0	171
0.01036	0.00026	0.06967	0.000	0.000	0.458	0.000	1.000	0	169
0.00995	0.00025	0.05408	0.000	0.000	0.458	0.000	1.000	0	169
0.00969	0.00025	0.05276	0.000	0.000	0.455	0.000	1.000	0	168
0.00937	0.00024	0.04977	0.000	0.000	0.455	0.000	1.000	0	168
0.00913	0.00024	0.04896	0.000	0.000	0.453	0.000	1.000	0	167
0.00889	0.00024	0.04820	0.000	0.000	0.450	0.000	1.000	0	166
0.00865	0.00024	0.04782	0.000	0.000	0.447	0.000	1.000	0	165
0.00832	0.00022	0.04460	0.000	0.000	0.450	0.000	1.000	0	166
0.00810	0.00022	0.04102	0.000	0.000	0.447	0.000	1.000	0	165
0.00780	0.00021	0.03914	0.000	0.000	0.450	0.000	1.000	0	166
0.00757	0.00019	0.03527	0.000	0.000	0.450	0.000	1.000	0	166
0.00736	0.00018	0.03416	0.000	0.000	0.450	0.000	1.000	0	166
0.00715	0.00018	0.03358	0.000	0.000	0.450	0.000	1.000	0	166
0.00695	0.00018	0.03347	0.000	0.000	0.450	0.000	1.000	0	166
0.00671	0.00017	0.03228	0.000	0.000	0.453	0.000	1.000	0	167
0.00656	0.00017	0.03193	0.000	0.000	0.450	0.000	1.000	0	166
0.00656	0.00017	0.03193	0.000	0.000	0.450	0.000	1.000	0	166
0.00617	0.00015	0.03086	0.000	0.000	0.450	0.000	1.000	0	166
0.00592	0.00014	0.03056	0.000	0.000	0.455	0.000	1.000	0	168
0.00577	0.00014	0.02969	0.000	0.000	0.453	0.000	1.000	0	167
0.00563	0.00014	0.02944	0.000	0.000	0.450	0.000	1.000	0	166
0.00548	0.00014	0.02898	0.000	0.000	0.447	0.000	1.000	0	165
0.00528	0.00011	0.02741	0.000	0.000	0.450	0.000	1.000	0	166
0.00507	0.00009	0.02741	0.000	0.000	0.469	0.000	1.000	0	173
0.00483	0.00009	0.02738	0.000	0.000	0.477	0.000	1.000	0	176
0.00452	0.00008	0.02154	0.000	0.000	0.477	0.000	1.000	0	176
0.00452	0.00008	0.02154	0.000	0.000	0.477	0.000	1.000	0	176
0.00452	0.00008	0.02154	0.000	0.000	0.477	0.000	1.000	0	176
0.00422	0.00008	0.02069	0.000	0.000	0.469	0.000	1.000	0	173
0.00393	0.00005	0.01932	0.000	0.000	0.491	0.000	1.000	0	181
0.00382	0.00005	0.01836	0.000	0.000	0.491	0.000	1.000	0	181
0.00370	0.00005	0.01708	0.000	0.000	0.493	0.000	1.000	0	182
0.00356	0.00004	0.01677	0.000	0.000	0.499	0.000	1.000	0	184
0.00349	0.00004	0.01655	0.000	0.000	0.496	0.000	1.000	0	183
0.00307	0.00002	0.01606	0.000	0.000	0.550	0.000	1.000	0	203
0.00293	0.00001	0.01589	0.000	0.000	0.561	0.000	1.000	0	207
0.00285	0.00001	0.01589	0.000	0.000	0.577	0.000	1.000	0	213
0.00257	0.00001	0.01572	0.000	0.000	0.607	0.000	1.000	0	224
0.00227	0.00000	0.01546	0.000	0.000	0.669	0.000	1.000	0	247
0.00220	0.00000	0.01546	0.000	0.000	0.691	0.000	1.000	0	255
0.00207	0.00000	0.01470	0.000	0.000	0.694	0.000	1.000	0	256
0.00202	0.00000	0.01413	0.000	0.000	0.691	0.000	1.000	0	255
0.00197	0.00000	0.01356	0.000	0.000	0.688	0.000	1.000	0	254
0.00192	0.00000	0.01343	0.000	0.000	0.686	0.000	1.000	0	253
0.00188	0.00000	0.01333	0.000	0.000	0.683	0.000	1.000	0	252
0.00183	0.00000	0.01314	0.000	0.000	0.680	0.000	1.000	0	251
0.00183	0.00000	0.01314	0.000	0.000	0.680	0.000	1.000	0	251
0.00174	0.00000	0.01280	0.000	0.000	0.675	0.000	1.000	0	249
0.00170	0.00000	0.01255	0.000	0.000	0.672	0.000	1.000	0	248
0.00165	0.00000	0.01240	0.000	0.000	0.669	0.000	1.000	0	247
0.00161	0.00000	0.01164	0.000	0.000	0.667	0.000	1.000	0	246
0.00157	0.00000	0.01105	0.000	0.000	0.664	0.000	1.000	0	245
0.00153	0.00000	0.01092	0.000	0.000	0.661	0.000	1.000	0	244
0.00149	0.00000	0.01073	0.000	0.000	0.659	0.000	1.000	0	243
0.00145	0.00000	0.01057	0.000	0.000	0.656	0.000	1.000	0	242
0.00145	0.00000	0.01057	0.000	0.000	0.656	0.000	1.000	0	242
0.00138	0.00000	0.00986	0.000	0.000	0.650	0.000	1.000	0	240
0.00134	0.00000	0.00956	0.000	0.000	0.648	0.000	1.000	0	239
0.00134	0.00000	0.00956	0.000	0.000	0.648	0.000	1.000	0	239
0.00127	0.00000	0.00927	0.000	0.000	0.642	0.000	1.000	0	237
0.00124	0.00000	0.00883	0.000	0.000	0.640	0.000	1.000	0	236
0.00124	0.00000	0.00883	0.000	0.000	0.640	0.000	1.000	0	236
0.00117	0.00000	0.00816	0.000	0.000	0.634	0.000	1.000	0	234
0.00114	0.00000	0.00790	0.000	0.000	0.631	0.000	1.000	0	233
0.00112	0.00000	0.00772	0.000	0.000	0.629	0.000	1.000	0	232
0.00109	0.00000	0.00758	0.000	0.000	0.626	0.000	1.000	0	231
0.00106	0.00000	0.00743	0.000	0.000	0.623	0.000	1.000	0	230
0.00106	0.00000	0.00743	0.000	0.000	0.623	0.000	1.000	0	230
0.00100	0.00000	0.00702	0.000	0.000	0.618	0.000	1.000	0	228
0.00100	0.00000	0.00702	0.000	0.000	0.618	0.000	1.000	0	228
0.00098	0.00000	0.00697	0.000	0.000	0.615	0.000	1.000	0	227
0.00092	0.00000	0.00673	0.000	0.000	0.610	0.000	1.000	0	225
0.00092	0.00000	0.00673	0.000	0.000	0.610	0.000	1.000	0	225
0.00092	0.00000	0.00673	0.000	0.000	0.610	0.000	1.000	0	225
0.00084	0.00000	0.00656	0.000	0.000	0.602	0.000	1.000	0	222
0.00082	0.00000	0.00623	0.000	0.000	0.599	0.000	1.000	0	221
0.00079	0.00000	0.00600	0.000	0.000	0.596	0.000	1.000	0	220
0.00077	0.00000	0.00587	0.000	0.000	0.593	0.000	1.000	0	219
0.00075	0.00000	0.00557	0.000	0.000	0.591	0.000	1.000	0	218
0.00072	0.00000	0.00527	0.000	0.000	0.588	0.000	1.000	0	217
0.00070	0.00000	0.00509	0.000	0.000	0.585	0.000	1.000	0	216
0.00070	0.00000	0.00509	0.000	0.000	0.585	0.000	1.000	0	216
0.00070	0.00000	0.00509	0.000	0.000	0.585	0.000	1.000	0	216
0.00070	0.00000	0.00509	0.000	0.000	0.585	0.000	1.000	0	216
0.00062	0.00000	0.00474	0.000	0.000	0.575	0.000	1.000	0	212
0.00060	0.00000	0.00464	0.000	0.000	0.572	0.000	1.000	0	211
0.00060	0.00000	0.00464	0.000	0.000	0.572	0.000	1.000	0	211
0.00056	0.00000	0.00427	0.000	0.000	0.566	0.000	1.000	0	209
0.00055	0.00000	0.00416	0.000	0.000	0.564	0.000	1.000	0	208
0.00055	0.00000	0.00416	0.000	0.000	0.564	0.000	1.000	0	208
0.00053	0.00000	0.00412	0.000	0.000	0.561	0.000	1.000	0	207
0.00049	0.00000	0.00391	0.000	0.000	0.556	0.000	1.000	0	205
0.00048	0.00000	0.00376	0.000	0.000	0.553	0.000	1.000	0	204
0.00046	0.00000	0.00366	0.000	0.000	0.550	0.000	1.000	0	203
0.00046	0.00000	0.00366	0.000	0.000	0.550	0.000	1.000	0	203
0.00043	0.00000	0.00349	0.000	0.000	0.545	0.000	1.000	0	201
0.00041	0.00000	0.00293	0.000	0.000	0.542	0.000	1.000	0	200
0.00041	0.00000	0.00293	0.000	0.000	0.542	0.000	1.000	0	200
0.00041	0.00000	0.00293	0.000	0.000	0.542	0.000	1.000	0	200
0.00038	0.00000	0.00264	0.000	0.000	0.534	0.000	1.000	0	197
0.00038	0.00000	0.00264	0.000	0.000	0.534	0.000	1.000	0	197
0.00037	0.00000	0.00256	0.000	0.000	0.531	0.000	1.000	0	196
0.00034	0.00000	0.00241	0.000	0.000	0.526	0.000	1.000	0	194
0.00034	0.00000	0.00241	0.000	0.000	0.526	0.000	1.000	0	194
0.00033	0.00000	0.00235	0.000	0.000	0.523	0.000	1.000	0	193
0.00031	0.00000	0.00210	0.000	0.000	0.518	0.000	1.000	0	191
0.00031	0.00000	0.00210	0.000	0.000	0.518	0.000	1.000	0	191
0.00031	0.00000	0.00210	0.000	0.000	0.518	0.000	1.000	0	191
0.00031	0.00000	0.00210	0.000	0.000	0.518	0.000	1.000	0	191
0.00030	0.00000	0.00205	0.000	0.000	0.515	0.000	1.000	0	190
0.00029	0.00000	0.00202	0.000	0.000	0.512	0.000	1.000	0	189
0.00029	0.00000	0.00202	0.000	0.000	0.512	0.000	1.000	0	189
0.00027	0.00000	0.00198	0.000	0.000	0.507	0.000	1.000	0	187
0.00025	0.00000	0.00189	0.000	0.000	0.499	0.000	1.000	0	184
0.00023	0.00000	0.00163	0.000	0.000	0.493	0.000	1.000	0	182
0.00023	0.00000	0.00163	0.000	0.000	0.493	0.000	1.000	0	182
0.00023	0.00000	0.00163	0.000	0.000	0.493	0.000	1.000	0	182
0.00021	0.00000	0.00144	0.000	0.000	0.485	0.000	1.000	0	179
0.00020	0.00000	0.00131	0.000	0.000	0.482	0.000	1.000	0	178
0.00020	0.00000	0.00131	0.000	0.000	0.482	0.000	1.000	0	178
0.00019	0.00000	0.00119	0.000	0.000	0.477	0.000	1.000	0	176
0.00019	0.00000	0.00119	0.000	0.000	0.477	0.000	1.000	0	176
0.00019	0.00000	0.00119	0.000	0.000	0.477	0.000	1.000	0	176
0.00018	0.00000	0.00111	0.000	0.000	0.472	0.000	1.000	0	174
0.00017	0.00000	0.00102	0.000	0.000	0.469	0.000	1.000	0	173
0.00017	0.00000	0.00098	0.000	0.000	0.466	0.000	1.000	0	172
0.00016	0.00000	0.00088	0.000	0.000	0.463	0.000	1.000	0	171
0.00016	0.00000	0.00088	0.000	0.000	0.463	0.000	1.000	0	171
0.00016	0.00000	0.00088	0.000	0.000	0.463	0.000	1.000	0	171
0.00016	0.00000	0.00088	0.000	0.000	0.463	0.000	1.000	0	171
0.00015	0.00000	0.00082	0.000	0.000	0.455	0.000	1.000	0	168
0.00015	0.00000	0.00082	0.000	0.000	0.455	0.000	1.000	0	168
0.00014	0.00000	0.00079	0.000	0.000	0.453	0.000	1.000	0	167
0.00014	0.00000	0.00075	0.000	0.000	0.447	0.000	1.000	0	165
0.00013	0.00000	0.00069	0.000	0.000	0.444	0.000	1.000	0	164
0.00013	0.00000	0.00069	0.000	0.000	0.444	0.000	1.000	0	164
0.00013	0.00000	0.00065	0.000	0.000	0.442	0.000	1.000	0	163
0.00013	0.00000	0.00065	0.000	0.000	0.442	0.000	1.000	0	163
0.00013	0.00000	0.00064	0.000	0.000	0.439	0.000	1.000	0	162
0.00013	0.00000	0.00064	0.000	0.000	0.439	0.000	1.000	0	162
0.00012	0.00000	0.00062	0.000	0.000	0.436	0.000	1.000	0	161
0.00012	0.00000	0.00062	0.000	0.000	0.436	0.000	1.000	0	161
0.00012	0.00000	0.00057	0.000	0.000	0.434	0.000	1.000	0	160
0.00012	0.00000	0.00057	0.000	0.000	0.434	0.000	1.000	0	160
