Score	Lower bound	Upper bound	Likelihood	TPR	FPR	PPV	FDR	No. positives	No. negatives
0.53876	0.31313	0.99800	2.49324	1.0000	0.4011	0.0390	0.9610	6	148
0.53876	0.31313	0.99800	2.49324	1.0000	0.4011	0.0390	0.9610	6	148
0.53730	0.31236	0.99800	2.47651	1.0000	0.4038	0.0387	0.9613	6	149
0.53025	0.31157	0.99800	2.39610	1.0000	0.4173	0.0375	0.9625	6	154
0.53025	0.31157	0.99800	2.39610	1.0000	0.4173	0.0375	0.9625	6	154
0.53025	0.31157	0.99800	2.39610	1.0000	0.4173	0.0375	0.9625	6	154
0.53025	0.31157	0.99800	2.39610	1.0000	0.4173	0.0375	0.9625	6	154
0.53025	0.31157	0.99800	2.39610	1.0000	0.4173	0.0375	0.9625	6	154
0.52487	0.30959	0.99800	2.33544	1.0000	0.4282	0.0366	0.9634	6	158
0.52487	0.30959	0.99800	2.33544	1.0000	0.4282	0.0366	0.9634	6	158
0.49414	0.30959	0.99700	2.06376	0.8333	0.4038	0.0325	0.9675	5	149
0.49414	0.30959	0.99700	2.06376	0.8333	0.4038	0.0325	0.9675	5	149
0.49060	0.30867	0.99700	2.02303	0.8333	0.4119	0.0318	0.9682	5	152
0.47181	0.30849	0.98900	1.22185	0.5000	0.4092	0.0195	0.9805	3	151
0.47181	0.30849	0.98900	1.22185	0.5000	0.4092	0.0195	0.9805	3	151
0.46969	0.30655	0.98900	1.20588	0.5000	0.4146	0.0192	0.9808	3	153
0.46969	0.30655	0.98900	1.20588	0.5000	0.4146	0.0192	0.9808	3	153
0.46761	0.30511	0.98900	1.19032	0.5000	0.4201	0.0190	0.9810	3	155
0.46761	0.30511	0.98900	1.19032	0.5000	0.4201	0.0190	0.9810	3	155
0.46555	0.30289	0.98900	1.17516	0.5000	0.4255	0.0187	0.9812	3	157
0.46555	0.30289	0.98900	1.17516	0.5000	0.4255	0.0187	0.9812	3	157
0.43710	0.30152	0.97400	0.81457	0.3333	0.4092	0.0131	0.9869	2	151
0.41739	0.27595	0.97400	0.70690	0.3333	0.4715	0.0114	0.9886	2	174
0.35701	0.26961	0.60400	0.39423	0.1667	0.4228	0.0064	0.9936	1	156
0.34816	0.26279	0.46606	0.38679	0.1667	0.4309	0.0063	0.9938	1	159
0.34026	0.25594	0.44424	0.38438	0.1667	0.4336	0.0062	0.9938	1	160
0.33391	0.25438	0.42474	0.00000	0.0000	0.4146	0.0000	1.0000	0	153
0.33339	0.25364	0.42474	0.00000	0.0000	0.4173	0.0000	1.0000	0	154
0.33167	0.25322	0.42463	0.00000	0.0000	0.4146	0.0000	1.0000	0	153
0.33109	0.24256	0.42463	0.00000	0.0000	0.4173	0.0000	1.0000	0	154
0.32929	0.24246	0.41483	0.00000	0.0000	0.4146	0.0000	1.0000	0	153
0.32816	0.24178	0.41458	0.00000	0.0000	0.4146	0.0000	1.0000	0	153
0.32702	0.24043	0.41359	0.00000	0.0000	0.4146	0.0000	1.0000	0	153
0.32589	0.23983	0.41331	0.00000	0.0000	0.4146	0.0000	1.0000	0	153
0.32475	0.23914	0.41193	0.00000	0.0000	0.4146	0.0000	1.0000	0	153
0.32307	0.23891	0.40985	0.00000	0.0000	0.4173	0.0000	1.0000	0	154
0.32307	0.23891	0.40985	0.00000	0.0000	0.4173	0.0000	1.0000	0	154
0.32138	0.23818	0.40875	0.00000	0.0000	0.4146	0.0000	1.0000	0	153
0.32026	0.23699	0.40653	0.00000	0.0000	0.4146	0.0000	1.0000	0	153
0.31913	0.23435	0.39822	0.00000	0.0000	0.4146	0.0000	1.0000	0	153
0.31857	0.23203	0.39822	0.00000	0.0000	0.4173	0.0000	1.0000	0	154
0.31744	0.23065	0.39822	0.00000	0.0000	0.4228	0.0000	1.0000	0	156
0.31744	0.23065	0.39822	0.00000	0.0000	0.4228	0.0000	1.0000	0	156
0.31688	0.22983	0.39822	0.00000	0.0000	0.4255	0.0000	1.0000	0	157
0.31628	0.22234	0.39822	0.00000	0.0000	0.4282	0.0000	1.0000	0	158
0.31186	0.22163	0.39739	0.00000	0.0000	0.4173	0.0000	1.0000	0	154
0.31130	0.22163	0.39726	0.00000	0.0000	0.4146	0.0000	1.0000	0	153
0.31071	0.22049	0.39726	0.00000	0.0000	0.4173	0.0000	1.0000	0	154
0.30841	0.22007	0.39324	0.00000	0.0000	0.4173	0.0000	1.0000	0	154
0.30786	0.22007	0.38907	0.00000	0.0000	0.4146	0.0000	1.0000	0	153
0.30674	0.21857	0.38701	0.00000	0.0000	0.4146	0.0000	1.0000	0	153
0.30563	0.21675	0.38629	0.00000	0.0000	0.4146	0.0000	1.0000	0	153
0.30450	0.21433	0.38590	0.00000	0.0000	0.4146	0.0000	1.0000	0	153
0.30272	0.20798	0.38535	0.00000	0.0000	0.4173	0.0000	1.0000	0	154
0.30272	0.20798	0.38535	0.00000	0.0000	0.4173	0.0000	1.0000	0	154
0.30102	0.20757	0.38452	0.00000	0.0000	0.4146	0.0000	1.0000	0	153
0.29981	0.20700	0.38452	0.00000	0.0000	0.4201	0.0000	1.0000	0	155
0.29870	0.20700	0.38243	0.00000	0.0000	0.4146	0.0000	1.0000	0	153
0.29810	0.20648	0.38243	0.00000	0.0000	0.4173	0.0000	1.0000	0	154
0.29640	0.20614	0.38120	0.00000	0.0000	0.4146	0.0000	1.0000	0	153
0.29581	0.20521	0.38120	0.00000	0.0000	0.4173	0.0000	1.0000	0	154
0.29410	0.20490	0.38010	0.00000	0.0000	0.4146	0.0000	1.0000	0	153
0.29351	0.20414	0.38010	0.00000	0.0000	0.4173	0.0000	1.0000	0	154
0.29179	0.20349	0.37971	0.00000	0.0000	0.4146	0.0000	1.0000	0	153
0.29121	0.20233	0.37971	0.00000	0.0000	0.4173	0.0000	1.0000	0	154
0.28945	0.19900	0.37894	0.00000	0.0000	0.4146	0.0000	1.0000	0	153
0.28827	0.19869	0.37855	0.00000	0.0000	0.4146	0.0000	1.0000	0	153
0.28708	0.19598	0.37787	0.00000	0.0000	0.4146	0.0000	1.0000	0	153
0.28589	0.19558	0.37621	0.00000	0.0000	0.4146	0.0000	1.0000	0	153
0.28469	0.19330	0.37508	0.00000	0.0000	0.4146	0.0000	1.0000	0	153
0.28350	0.19280	0.37468	0.00000	0.0000	0.4146	0.0000	1.0000	0	153
0.28173	0.19251	0.37200	0.00000	0.0000	0.4173	0.0000	1.0000	0	154
0.28114	0.19251	0.36800	0.00000	0.0000	0.4146	0.0000	1.0000	0	153
0.27999	0.19223	0.36733	0.00000	0.0000	0.4146	0.0000	1.0000	0	153
0.27821	0.18643	0.36695	0.00000	0.0000	0.4173	0.0000	1.0000	0	154
0.27821	0.18643	0.36695	0.00000	0.0000	0.4173	0.0000	1.0000	0	154
0.27644	0.18579	0.36349	0.00000	0.0000	0.4146	0.0000	1.0000	0	153
0.27585	0.18523	0.36349	0.00000	0.0000	0.4173	0.0000	1.0000	0	154
0.27411	0.18493	0.36113	0.00000	0.0000	0.4146	0.0000	1.0000	0	153
0.27238	0.18466	0.36074	0.00000	0.0000	0.4173	0.0000	1.0000	0	154
0.27181	0.18466	0.35998	0.00000	0.0000	0.4146	0.0000	1.0000	0	153
0.27065	0.18319	0.35726	0.00000	0.0000	0.4146	0.0000	1.0000	0	153
0.26895	0.18308	0.35687	0.00000	0.0000	0.4173	0.0000	1.0000	0	154
0.26838	0.18308	0.35532	0.00000	0.0000	0.4146	0.0000	1.0000	0	153
0.26727	0.18288	0.35532	0.00000	0.0000	0.4201	0.0000	1.0000	0	155
0.26612	0.18288	0.35275	0.00000	0.0000	0.4146	0.0000	1.0000	0	153
0.26501	0.18262	0.35184	0.00000	0.0000	0.4146	0.0000	1.0000	0	153
0.26390	0.18221	0.35022	0.00000	0.0000	0.4146	0.0000	1.0000	0	153
0.26280	0.18139	0.34991	0.00000	0.0000	0.4146	0.0000	1.0000	0	153
0.26169	0.18002	0.34958	0.00000	0.0000	0.4146	0.0000	1.0000	0	153
0.25951	0.17836	0.34874	0.00000	0.0000	0.4201	0.0000	1.0000	0	155
0.25893	0.17836	0.34855	0.00000	0.0000	0.4173	0.0000	1.0000	0	154
0.25834	0.17836	0.34302	0.00000	0.0000	0.4146	0.0000	1.0000	0	153
0.25726	0.17756	0.33287	0.00000	0.0000	0.4146	0.0000	1.0000	0	153
0.25624	0.17710	0.33221	0.00000	0.0000	0.4146	0.0000	1.0000	0	153
0.25522	0.17622	0.33171	0.00000	0.0000	0.4146	0.0000	1.0000	0	153
0.25420	0.17584	0.33044	0.00000	0.0000	0.4146	0.0000	1.0000	0	153
0.25369	0.17440	0.33044	0.00000	0.0000	0.4173	0.0000	1.0000	0	154
0.25316	0.17210	0.33044	0.00000	0.0000	0.4201	0.0000	1.0000	0	155
0.25111	0.17157	0.33016	0.00000	0.0000	0.4146	0.0000	1.0000	0	153
0.25007	0.17115	0.32900	0.00000	0.0000	0.4146	0.0000	1.0000	0	153
0.24903	0.16956	0.32763	0.00000	0.0000	0.4146	0.0000	1.0000	0	153
0.24799	0.16899	0.32573	0.00000	0.0000	0.4146	0.0000	1.0000	0	153
0.24696	0.16797	0.32323	0.00000	0.0000	0.4146	0.0000	1.0000	0	153
0.24544	0.16784	0.32165	0.00000	0.0000	0.4173	0.0000	1.0000	0	154
0.24494	0.16784	0.32025	0.00000	0.0000	0.4146	0.0000	1.0000	0	153
0.24394	0.16756	0.31779	0.00000	0.0000	0.4146	0.0000	1.0000	0	153
0.24246	0.16676	0.31739	0.00000	0.0000	0.4173	0.0000	1.0000	0	154
0.24197	0.16676	0.31700	0.00000	0.0000	0.4146	0.0000	1.0000	0	153
0.24002	0.16641	0.31623	0.00000	0.0000	0.4201	0.0000	1.0000	0	155
0.23953	0.16641	0.31514	0.00000	0.0000	0.4173	0.0000	1.0000	0	154
0.23904	0.16641	0.31478	0.00000	0.0000	0.4146	0.0000	1.0000	0	153
0.23806	0.16606	0.31313	0.00000	0.0000	0.4146	0.0000	1.0000	0	153
0.23713	0.16562	0.31313	0.00000	0.0000	0.4201	0.0000	1.0000	0	155
0.23614	0.16562	0.31236	0.00000	0.0000	0.4146	0.0000	1.0000	0	153
0.23472	0.16504	0.31157	0.00000	0.0000	0.4173	0.0000	1.0000	0	154
0.23472	0.16504	0.31157	0.00000	0.0000	0.4173	0.0000	1.0000	0	154
0.23381	0.16420	0.31157	0.00000	0.0000	0.4228	0.0000	1.0000	0	156
0.23381	0.16420	0.31157	0.00000	0.0000	0.4228	0.0000	1.0000	0	156
0.23336	0.16253	0.31157	0.00000	0.0000	0.4255	0.0000	1.0000	0	157
0.22946	0.16226	0.30965	0.00000	0.0000	0.4201	0.0000	1.0000	0	155
0.22946	0.16226	0.30965	0.00000	0.0000	0.4201	0.0000	1.0000	0	155
0.22946	0.16226	0.30965	0.00000	0.0000	0.4201	0.0000	1.0000	0	155
0.22816	0.16092	0.30965	0.00000	0.0000	0.4282	0.0000	1.0000	0	158
0.22604	0.16092	0.30907	0.00000	0.0000	0.4173	0.0000	1.0000	0	154
0.22550	0.16092	0.30867	0.00000	0.0000	0.4146	0.0000	1.0000	0	153
0.22508	0.16073	0.30867	0.00000	0.0000	0.4173	0.0000	1.0000	0	154
0.22357	0.16060	0.30849	0.00000	0.0000	0.4146	0.0000	1.0000	0	153
0.22315	0.15929	0.30849	0.00000	0.0000	0.4173	0.0000	1.0000	0	154
0.22121	0.15872	0.30655	0.00000	0.0000	0.4173	0.0000	1.0000	0	154
0.22121	0.15872	0.30655	0.00000	0.0000	0.4173	0.0000	1.0000	0	154
0.21968	0.15807	0.30511	0.00000	0.0000	0.4146	0.0000	1.0000	0	153
0.21927	0.15694	0.30511	0.00000	0.0000	0.4173	0.0000	1.0000	0	154
0.21733	0.15612	0.30289	0.00000	0.0000	0.4173	0.0000	1.0000	0	154
0.21733	0.15612	0.30289	0.00000	0.0000	0.4173	0.0000	1.0000	0	154
0.21581	0.15579	0.30152	0.00000	0.0000	0.4146	0.0000	1.0000	0	153
0.21486	0.15527	0.29920	0.00000	0.0000	0.4146	0.0000	1.0000	0	153
0.21447	0.15515	0.29920	0.00000	0.0000	0.4173	0.0000	1.0000	0	154
0.21260	0.15491	0.29881	0.00000	0.0000	0.4173	0.0000	1.0000	0	154
0.21260	0.15491	0.29881	0.00000	0.0000	0.4173	0.0000	1.0000	0	154
0.21109	0.15399	0.29784	0.00000	0.0000	0.4146	0.0000	1.0000	0	153
0.20977	0.15340	0.29369	0.00000	0.0000	0.4173	0.0000	1.0000	0	154
0.20923	0.15340	0.29316	0.00000	0.0000	0.4146	0.0000	1.0000	0	153
0.20830	0.15207	0.29305	0.00000	0.0000	0.4146	0.0000	1.0000	0	153
0.20722	0.15185	0.29305	0.00000	0.0000	0.4228	0.0000	1.0000	0	156
0.20722	0.15185	0.29305	0.00000	0.0000	0.4228	0.0000	1.0000	0	156
0.20554	0.15185	0.28475	0.00000	0.0000	0.4146	0.0000	1.0000	0	153
0.20431	0.15072	0.28204	0.00000	0.0000	0.4173	0.0000	1.0000	0	154
0.20431	0.15072	0.28204	0.00000	0.0000	0.4173	0.0000	1.0000	0	154
0.20294	0.15009	0.27875	0.00000	0.0000	0.4146	0.0000	1.0000	0	153
0.20209	0.14910	0.27819	0.00000	0.0000	0.4146	0.0000	1.0000	0	153
0.20173	0.14576	0.27819	0.00000	0.0000	0.4173	0.0000	1.0000	0	154
0.20101	0.14566	0.27819	0.00000	0.0000	0.4228	0.0000	1.0000	0	156
0.20101	0.14566	0.27819	0.00000	0.0000	0.4228	0.0000	1.0000	0	156
0.19828	0.14533	0.27701	0.00000	0.0000	0.4173	0.0000	1.0000	0	154
0.19776	0.14533	0.27678	0.00000	0.0000	0.4146	0.0000	1.0000	0	153
0.19742	0.14517	0.27678	0.00000	0.0000	0.4173	0.0000	1.0000	0	154
0.19708	0.14441	0.27678	0.00000	0.0000	0.4201	0.0000	1.0000	0	155
0.19517	0.14405	0.27595	0.00000	0.0000	0.4146	0.0000	1.0000	0	153
0.19431	0.14385	0.27511	0.00000	0.0000	0.4146	0.0000	1.0000	0	153
0.19344	0.14264	0.27189	0.00000	0.0000	0.4146	0.0000	1.0000	0	153
0.19310	0.14142	0.27189	0.00000	0.0000	0.4173	0.0000	1.0000	0	154
0.19138	0.13929	0.27078	0.00000	0.0000	0.4173	0.0000	1.0000	0	154
0.19086	0.13929	0.26961	0.00000	0.0000	0.4146	0.0000	1.0000	0	153
0.19000	0.13778	0.26948	0.00000	0.0000	0.4146	0.0000	1.0000	0	153
0.18913	0.13561	0.26933	0.00000	0.0000	0.4146	0.0000	1.0000	0	153
0.18825	0.13498	0.26784	0.00000	0.0000	0.4146	0.0000	1.0000	0	153
0.18670	0.13472	0.26746	0.00000	0.0000	0.4201	0.0000	1.0000	0	155
0.18618	0.13472	0.26454	0.00000	0.0000	0.4173	0.0000	1.0000	0	154
0.18566	0.13472	0.26403	0.00000	0.0000	0.4146	0.0000	1.0000	0	153
0.18480	0.13152	0.26279	0.00000	0.0000	0.4146	0.0000	1.0000	0	153
0.18314	0.12536	0.26164	0.00000	0.0000	0.4201	0.0000	1.0000	0	155
0.18263	0.12536	0.25936	0.00000	0.0000	0.4173	0.0000	1.0000	0	154
0.18263	0.12536	0.25936	0.00000	0.0000	0.4173	0.0000	1.0000	0	154
0.18225	0.12261	0.25936	0.00000	0.0000	0.4201	0.0000	1.0000	0	155
0.18028	0.11206	0.25835	0.00000	0.0000	0.4146	0.0000	1.0000	0	153
0.17931	0.11058	0.25690	0.00000	0.0000	0.4146	0.0000	1.0000	0	153
0.17808	0.06926	0.25594	0.00000	0.0000	0.4146	0.0000	1.0000	0	153
0.17610	0.06426	0.25438	0.00000	0.0000	0.4173	0.0000	1.0000	0	154
0.17559	0.06426	0.25364	0.00000	0.0000	0.4146	0.0000	1.0000	0	153
0.17169	0.00000	0.25322	0.00000	0.0000	0.4201	0.0000	1.0000	0	155
0.17116	0.00000	0.24256	0.00000	0.0000	0.4173	0.0000	1.0000	0	154
0.17069	0.00000	0.24246	0.00000	0.0000	0.4146	0.0000	1.0000	0	153
